# tau / ps;  MSD / pm^2;  Derivative
0.000000; 0.000000; 3595.578522
9.000993; 32363.777279; 1752.971468
18.001986; 48142.261276; 1533.226708
27.002979; 61942.824221; 1415.747878
36.003972; 74685.961030; 1349.890634
45.004965; 86836.317240; 1304.619019
54.005958; 98579.183957; 1270.597965
63.006951; 110015.827411; 1237.170705
72.007944; 121151.592325; 1223.063227
81.008937; 132160.375932; 1213.805765
90.009930; 143085.833187; 1202.093221
99.010924; 153905.865914; 1189.348237
108.011917; 164611.181128; 1187.373133
117.012910; 175298.718445; 1179.742896
126.013903; 185917.576055; 1176.508798
135.014896; 196507.323567; 1177.153433
144.015889; 207102.873438; 1165.444890
153.016882; 217593.034794; 1165.230375
162.017875; 228081.265304; 1161.387479
171.018868; 238534.905930; 1160.538919
180.019861; 248980.908670; 1163.551233
189.020854; 259454.025229; 1155.309679
198.021847; 269852.959615; 1156.772690
207.022840; 280265.062555; 1146.930483
216.023833; 290588.575859; 1146.180046
225.024826; 300905.334484; 1149.965238
234.025819; 311256.163602; 1143.791891
243.026812; 321551.426458; 1149.783432
252.027805; 331900.619132; 1135.810737
261.028798; 342124.043685; 1134.241313
270.029791; 352333.341856; 1136.979612
279.030785; 362567.287440; 1137.739321
288.031778; 372808.071164; 1144.585314
297.032771; 383110.475615; 1138.020766
306.033764; 393353.792620; 1133.694668
315.034757; 403558.170449; 1131.896033
324.035750; 413746.358773; 1144.237653
333.036743; 424045.633933; 1145.820940
342.037736; 434359.160248; 1135.335463
351.038729; 444578.306856; 1145.528246
360.039722; 454889.198631; 1134.951054
369.040715; 465104.885174; 1128.586748
378.041708; 475263.286649; 1134.063253
387.042701; 485470.982103; 1129.252109
396.043694; 495635.372489; 1128.229112
405.044687; 505790.554887; 1127.059352
414.045680; 515935.208277; 1124.239127
423.046673; 526054.476841; 1121.688365
432.047666; 536150.786014; 1133.491962
441.048659; 546353.339287; 1129.023748
450.049652; 556515.674196; 1127.520290
459.050645; 566664.476485; 1134.947135
468.051639; 576880.127755; 1142.388553
477.052632; 587162.759182; 1139.948913
486.053625; 597423.431427; 1133.669695
495.054618; 607627.584475; 1138.058601
504.055611; 617871.242030; 1135.129638
513.056604; 628088.536011; 1138.740640
522.057597; 638338.332594; 1138.232198
531.058590; 648583.552697; 1140.091446
540.059583; 658845.507875; 1132.380380
549.060576; 669038.055806; 1141.881032
558.061569; 679316.119038; 1141.165396
567.062562; 689587.740837; 1131.729589
576.063555; 699774.430999; 1137.098809
585.064548; 710009.449470; 1128.529909
594.065541; 720167.339338; 1134.180119
603.066534; 730376.086703; 1137.594222
612.067527; 740615.564392; 1140.160614
621.068520; 750878.142153; 1142.611970
630.069513; 761162.784548; 1132.596712
639.070506; 771357.279682; 1130.167995
648.071500; 781529.913947; 1136.394897
657.072493; 791758.596518; 1134.335062
666.073486; 801968.738524; 1130.907006
675.074479; 812148.024621; 1129.014990
684.075472; 822310.280700; 1127.586849
693.076465; 832459.682090; 1137.825699
702.077458; 842701.243295; 1131.606312
711.078451; 852886.823845; 1142.802762
720.079444; 863173.183565; 1141.038727
729.080437; 873443.665211; 1140.116883
738.081430; 883705.849346; 1138.315105
747.082423; 893951.815691; 1133.339635
756.083416; 904152.997871; 1132.192238
765.084409; 914343.852336; 1139.612638
774.085402; 924601.497769; 1129.297069
783.086395; 934766.292835; 1133.156879
792.087388; 944965.830030; 1141.180415
801.088381; 955237.587011; 1135.332500
810.089374; 965456.706952; 1135.035481
819.090367; 975673.153429; 1129.712582
828.091360; 985841.688530; 1138.252822
837.092354; 996087.094267; 1140.929803
846.093347; 1006356.595491; 1141.480165
855.094340; 1016631.050522; 1141.467144
864.095333; 1026905.388351; 1139.399327
873.096326; 1037161.113769; 1144.900532
882.097319; 1047466.355498; 1145.595469
891.098312; 1057777.852347; 1151.709796
900.099305; 1068144.384217; 1154.211009
909.100298; 1078533.429485; 1156.905345
918.101291; 1088946.726449; 1155.968134
927.102284; 1099351.587591; 1157.268022
936.103277; 1109768.149015; 1164.684137
945.104270; 1120251.462835; 1163.967451
954.105263; 1130728.325768; 1159.445671
963.106256; 1141164.488197; 1155.545582
972.107249; 1151565.545949; 1155.772367
981.108242; 1161968.644991; 1158.706873
990.109235; 1172398.157497; 1156.978104
999.110228; 1182812.109373; 1163.912162
1008.111221; 1193288.474653; 1169.453409
1017.112214; 1203814.716657; 1167.202170
1026.113208; 1214320.695278; 1162.496013
1035.114201; 1224784.313810; 1161.801884
1044.115194; 1235241.684495; 1159.297906
1053.116187; 1245676.516888; 1158.637663
1062.117180; 1256105.406438; 1156.203623
1071.118173; 1266512.387207; 1159.826108
1080.119166; 1276951.973941; 1156.313427
1089.120159; 1287359.943061; 1166.450569
1098.121152; 1297859.156523; 1166.816452
1107.122145; 1308361.663295; 1166.654998
1116.123138; 1318862.716821; 1157.749596
1125.124131; 1329283.612889; 1151.774828
1134.125124; 1339650.730108; 1158.250895
1143.126117; 1350076.138361; 1152.701170
1152.127110; 1360451.593582; 1153.680468
1161.128103; 1370835.863457; 1153.355971
1170.129096; 1381217.212531; 1157.042560
1179.130089; 1391631.744568; 1153.677654
1188.131082; 1402015.989112; 1153.352745
1197.132075; 1412397.309153; 1151.119611
1206.133069; 1422758.528766; 1154.212118
1215.134062; 1433147.584016; 1152.105911
1224.135055; 1443517.681313; 1151.759322
1233.136048; 1453884.658960; 1160.096798
1242.137041; 1464326.682173; 1157.118284
1251.138034; 1474741.895800; 1150.825201
1260.139027; 1485100.465432; 1159.038387
1269.140020; 1495532.961897; 1161.680054
1278.141013; 1505989.235987; 1154.458436
1287.142006; 1516380.508346; 1155.174043
1296.142999; 1526778.221878; 1157.775288
1305.143992; 1537199.349194; 1152.903936
1314.144985; 1547576.629507; 1157.691265
1323.145978; 1557997.000533; 1154.220756
1332.146971; 1568386.133529; 1158.696002
1341.147964; 1578815.548188; 1154.724938
1350.148957; 1589209.219331; 1151.391564
1359.149950; 1599572.886794; 1162.074507
1368.150943; 1610032.711357; 1159.395095
1377.151936; 1620468.418545; 1159.752668
1386.152929; 1630907.344250; 1152.550394
1395.153923; 1641281.442330; 1149.910968
1404.154916; 1651631.782961; 1148.076364
1413.155909; 1661965.610330; 1149.822754
1422.156902; 1672315.156944; 1143.875639
1431.157895; 1682611.173616; 1149.675045
1440.158888; 1692959.390708; 1145.417046
1449.159881; 1703269.281580; 1150.069709
1458.160874; 1713621.051037; 1150.577203
1467.161867; 1723977.388440; 1152.277604
1476.162860; 1734349.031145; 1156.754013
1485.163853; 1744760.965975; 1158.899225
1494.164846; 1755192.209841; 1152.405607
1503.165839; 1765565.004699; 1156.529608
1512.166832; 1775974.919659; 1163.381566
1521.167825; 1786446.509051; 1160.672630
1530.168818; 1796893.715326; 1161.744840
1539.169811; 1807350.572559; 1152.091130
1548.170804; 1817720.536809; 1159.050861
1557.171797; 1828153.145556; 1159.573563
1566.172790; 1838590.459133; 1153.881471
1575.173784; 1848976.538236; 1153.151464
1584.174777; 1859356.046545; 1163.876046
1593.175770; 1869832.086746; 1169.372990
1602.176763; 1880357.604900; 1162.505470
1611.177756; 1890821.308553; 1162.769306
1620.178749; 1901287.386990; 1159.906359
1629.179742; 1911727.696065; 1171.332804
1638.180735; 1922270.854493; 1170.291259
1647.181728; 1932804.637980; 1168.906174
1656.182721; 1943325.954324; 1165.219057
1665.183714; 1953814.082955; 1162.301820
1674.184707; 1964275.953560; 1162.009046
1683.185700; 1974735.188907; 1170.605164
1692.186693; 1985271.797852; 1168.894719
1701.187686; 1995793.011090; 1166.631018
1710.188679; 2006293.848775; 1168.589797
1719.189672; 2016812.317415; 1158.839056
1728.190665; 2027243.019701; 1166.322199
1737.191658; 2037741.077709; 1157.781668
1746.192651; 2048162.262453; 1151.353151
1755.193644; 2058525.584162; 1161.111775
1764.194638; 2068976.743174; 1161.139485
1773.195631; 2079428.151607; 1164.316664
1782.196624; 2089908.157810; 1162.175832
1791.197617; 2100368.894396; 1163.496452
1800.198610; 2110841.517870; 1163.443648
1809.199603; 2121313.666062; 1167.855410
1818.200596; 2131825.524488; 1165.335784
1827.201589; 2142314.703777; 1173.397374
1836.202582; 2152876.445384; 1171.548643
1845.203575; 2163421.546572; 1166.212615
1854.204568; 2173918.618215; 1164.792613
1863.205561; 2184402.908432; 1169.529981
1872.206554; 2194929.839661; 1161.814554
1881.207547; 2205387.324387; 1164.090290
1890.208540; 2215865.292995; 1156.107436
1899.209533; 2226271.407986; 1164.989696
1908.210526; 2236757.472140; 1158.437977
1917.211519; 2247184.564319; 1166.399208
1926.212512; 2257683.315481; 1158.120474
1935.213505; 2268107.549820; 1160.812998
1944.214499; 2278556.019548; 1163.258906
1953.215492; 2289026.504873; 1161.212787
1962.216485; 2299478.573099; 1161.356062
1971.217478; 2309931.930944; 1161.685087
1980.218471; 2320388.250335; 1160.240108
1989.219464; 2330831.563483; 1162.566545
1998.220457; 2341295.816877; 1160.633094
2007.221450; 2351742.667292; 1163.384869
2016.222443; 2362214.286415; 1159.625110
2025.223436; 2372652.063965; 1160.153239
2034.224429; 2383094.595203; 1158.730686
2043.225422; 2393524.322057; 1160.573667
2052.226415; 2403970.637570; 1159.257782
2061.227408; 2414405.108804; 1161.556900
2070.228401; 2424860.274391; 1161.907192
2079.229394; 2435318.592949; 1164.060226
2088.230387; 2445796.290955; 1166.044086
2097.231380; 2456291.845672; 1159.876203
2106.232373; 2466731.883310; 1163.355628
2115.233366; 2477203.239230; 1153.099167
2124.234359; 2487582.276816; 1154.354082
2133.235353; 2497972.609887; 1149.919685
2142.236346; 2508323.028977; 1148.500163
2151.237339; 2518660.670963; 1155.086101
2160.238332; 2529057.592929; 1155.384036
2169.239325; 2539457.196606; 1156.969256
2178.240318; 2549871.068841; 1148.679116
2187.241311; 2560210.321581; 1155.355657
2196.242304; 2570609.669818; 1152.554953
2205.243297; 2580983.808935; 1150.763834
2214.244290; 2591341.826203; 1152.053663
2223.245283; 2601711.453213; 1148.705438
2232.246276; 2612050.942875; 1157.986944
2241.247269; 2622473.975311; 1152.176225
2250.248262; 2632844.705507; 1144.901524
2259.249255; 2643149.956164; 1148.832037
2268.250248; 2653490.585346; 1155.277154
2277.251241; 2663889.226980; 1148.480266
2286.252234; 2674226.689868; 1149.393077
2295.253227; 2684572.368961; 1151.686585
2304.254220; 2694938.691906; 1153.255029
2313.255214; 2705319.132405; 1151.285717
2322.256207; 2715681.847136; 1156.012340
2331.257200; 2726087.106176; 1158.848884
2340.258193; 2736517.896927; 1155.734340
2349.259186; 2746920.653686; 1156.921949
2358.260179; 2757334.100111; 1152.648571
2367.261172; 2767709.081890; 1164.330685
2376.262165; 2778189.214293; 1145.882374
2385.263158; 2788503.293578; 1150.684513
2394.264151; 2798860.596885; 1152.190420
2403.265144; 2809231.454846; 1148.732177
2412.266137; 2819571.185187; 1147.486805
2421.267130; 2829899.705939; 1153.379830
2430.268123; 2840281.269768; 1151.677038
2439.269116; 2850647.506779; 1153.484345
2448.270109; 2861030.011354; 1151.661940
2457.271102; 2871396.112468; 1150.115565
2466.272095; 2881748.294674; 1153.268445
2475.273088; 2892128.855926; 1152.418465
2484.274081; 2902501.766519; 1153.036812
2493.275074; 2912880.242850; 1161.981998
2502.276068; 2923339.234741; 1148.523178
2511.277061; 2933677.083886; 1147.939836
2520.278054; 2944009.682368; 1149.118559
2529.279047; 2954352.890529; 1151.773434
2538.280040; 2964719.995204; 1152.707368
2547.281033; 2975095.506213; 1150.003388
2556.282026; 2985446.678714; 1154.280889
2565.283019; 2995836.352972; 1158.432663
2574.284012; 3006263.397320; 1157.254755
2583.285005; 3016679.839326; 1152.957908
2592.285998; 3027057.605443; 1154.069528
2601.286991; 3037445.377238; 1153.078466
2610.287984; 3047824.228493; 1161.311188
2619.288977; 3058277.182425; 1162.274336
2628.289970; 3068738.805648; 1156.781035
2637.290963; 3079150.983699; 1155.879473
2646.291956; 3089555.046798; 1165.048513
2655.292949; 3100041.640366; 1155.640156
2664.293942; 3110443.549374; 1160.938489
2673.294935; 3120893.148647; 1150.501805
2682.295929; 3131248.807394; 1160.819005
2691.296922; 3141697.331189; 1157.941155
2700.297915; 3152119.951472; 1153.417669
2709.298908; 3162501.855890; 1155.248802
2718.299901; 3172900.242322; 1147.935494
2727.300894; 3183232.801720; 1157.694647
2736.301887; 3193653.203190; 1151.658068
2745.302880; 3204019.269453; 1154.033057
2754.303873; 3214406.712976; 1146.649153
2763.304866; 3224727.694029; 1150.956184
2772.305859; 3235087.442638; 1143.113484
2781.306852; 3245376.599159; 1142.172788
2790.307845; 3255657.288486; 1148.036270
2799.308838; 3265990.754969; 1144.197293
2808.309831; 3276289.666848; 1141.607761
2817.310824; 3286565.270370; 1145.971667
2826.311817; 3296880.153381; 1145.280014
2835.312810; 3307188.810829; 1139.046692
2844.313803; 3317441.362190; 1148.685613
2853.314796; 3327780.673404; 1147.017364
2862.315789; 3338104.968720; 1140.448512
2871.316783; 3348370.137849; 1140.057934
2880.317776; 3358631.791390; 1126.104257
2889.318769; 3368767.847976; 1132.503890
2898.319762; 3378961.507620; 1137.302383
2907.320755; 3389198.358464; 1136.393186
2916.321748; 3399427.025628; 1139.737075
2925.322741; 3409685.791118; 1142.173621
2934.323734; 3419966.487942; 1136.101372
2943.324727; 3430192.528494; 1144.498254
2952.325720; 3440494.149319; 1142.100765
2961.326713; 3450774.190362; 1138.985149
2970.327706; 3461026.187768; 1144.264561
2979.328699; 3471325.705126; 1140.068294
2988.329692; 3481587.451919; 1139.002635
2997.330685; 3491839.606717; 1138.991283
3006.331678; 3502091.659334; 1140.968154
3015.332671; 3512361.505758; 1133.657158
3024.333664; 3522565.545959; 1134.875684
3033.334657; 3532780.554104; 1136.366630
3042.335650; 3543008.982244; 1138.968435
3051.336643; 3553260.829212; 1129.927885
3060.337637; 3563431.302247; 1135.309370
3069.338630; 3573650.213996; 1140.494575
3078.339623; 3583915.797739; 1133.560981
3087.340616; 3594118.972253; 1144.326216
3096.341609; 3604419.044573; 1138.115404
3105.342602; 3614663.213409; 1139.267065
3114.343595; 3624917.748340; 1133.969219
3123.344588; 3635124.597400; 1134.445751
3132.345581; 3645335.735717; 1136.523865
3141.346574; 3655565.579126; 1143.078177
3150.347567; 3665854.417849; 1136.961719
3159.348560; 3676088.202380; 1139.331691
3168.349553; 3686343.319012; 1136.323035
3177.350546; 3696571.354752; 1139.434466
3186.351539; 3706827.396463; 1142.342649
3195.352532; 3717109.614705; 1141.213898
3204.353525; 3727381.673065; 1139.833297
3213.354518; 3737641.304649; 1141.786304
3222.355511; 3747918.515234; 1136.277832
3231.356504; 3758146.144097; 1140.357654
3240.357498; 3768410.495415; 1141.166226
3249.358491; 3778682.124682; 1144.929695
3258.359484; 3788987.628906; 1149.827064
3267.360477; 3799337.214315; 1151.542737
3276.361470; 3809702.242481; 1147.737409
3285.362463; 3820033.018926; 1152.707827
3294.363456; 3830408.534059; 1146.751642
3303.364449; 3840730.437614; 1143.934578
3312.365442; 3851026.984799; 1143.497009
3321.366435; 3861319.593427; 1146.302284
3330.367428; 3871637.452318; 1145.649013
3339.368421; 3881949.431122; 1148.626849
3348.369414; 3892288.213402; 1139.466104
3357.370407; 3902544.539881; 1129.754063
3366.371400; 3912713.448344; 1147.172724
3375.372393; 3923039.142062; 1140.603701
3384.373386; 3933305.708050; 1145.665015
3393.374379; 3943617.830889; 1141.686754
3402.375372; 3953894.145429; 1141.421599
3411.376365; 3964168.073306; 1147.705534
3420.377358; 3974498.562844; 1150.590063
3429.378352; 3984855.016002; 1149.158407
3438.379345; 3995198.582833; 1152.890660
3447.380338; 4005575.743650; 1154.181316
3456.381331; 4015964.521654; 1156.616189
3465.382324; 4026375.215931; 1153.598086
3474.383317; 4036758.744285; 1155.739373
3483.384310; 4047161.546344; 1147.417295
3492.385303; 4057489.441445; 1158.671922
3501.386296; 4067918.639358; 1160.488860
3510.387289; 4078364.191523; 1156.103332
3519.388282; 4088770.269580; 1157.385969
3528.389275; 4099187.892637; 1160.172999
3537.390268; 4109630.601734; 1162.237304
3546.391261; 4120091.891624; 1159.800895
3555.392254; 4130531.251420; 1154.024885
3564.393247; 4140918.621388; 1168.926056
3573.394240; 4151440.116694; 1161.066922
3582.395233; 4161890.871987; 1164.380881
3591.396226; 4172371.456202; 1167.998780
3600.397219; 4182884.605105; 1163.389902
3609.398213; 4193356.269529; 1170.436810
3618.399206; 4203891.363117; 1161.360106
3627.400199; 4214344.757358; 1164.566534
3636.401192; 4224827.012637; 1171.347406
3645.402185; 4235370.302500; 1174.851844
3654.403178; 4245945.135777; 1165.658250
3663.404171; 4256437.217583; 1162.978184
3672.405164; 4266905.176133; 1163.624920
3681.406157; 4277378.955952; 1163.786720
3690.407150; 4287854.192125; 1163.428045
3699.408143; 4298326.199873; 1168.668817
3708.409136; 4308845.379769; 1154.996893
3717.410129; 4319241.498770; 1153.289540
3726.411122; 4329622.249901; 1164.243459
3735.412115; 4340101.597182; 1160.721619
3744.413108; 4350549.244407; 1150.844445
3753.414101; 4360907.987259; 1152.880820
3762.415094; 4371285.059507; 1157.978193
3771.416087; 4381708.013176; 1148.174591
3780.417080; 4392042.724691; 1149.630282
3789.418073; 4402390.538864; 1147.731817
3798.419067; 4412721.264975; 1154.955826
3807.420060; 4423117.014339; 1148.764911
3816.421053; 4433457.039321; 1149.044638
3825.422046; 4443799.582119; 1150.242072
3834.423039; 4454152.903013; 1148.896908
3843.424032; 4464494.116097; 1148.020801
3852.425025; 4474827.443349; 1144.741638
3861.426018; 4485131.254871; 1148.307020
3870.427011; 4495467.158372; 1142.801355
3879.428004; 4505753.505426; 1147.405642
3888.428997; 4516081.295636; 1142.868721
3897.429990; 4526368.249054; 1142.410708
3906.430983; 4536651.079895; 1144.681652
3915.431976; 4546954.351483; 1137.578925
3924.432969; 4557193.691482; 1134.491479
3933.433962; 4567405.241400; 1146.989744
3942.434955; 4577729.288111; 1141.586159
3951.435948; 4588004.697194; 1141.417072
3960.436941; 4598278.584322; 1143.641395
3969.437934; 4608572.492568; 1140.494743
3978.438928; 4618838.077826; 1136.982850
3987.439921; 4629072.052554; 1136.813074
3996.440914; 4639304.499128; 1130.446962
4005.441907; 4649479.644375; 1139.613226
4014.442900; 4659737.295099; 1139.133742
4023.443893; 4669990.629989; 1141.247717
4032.444886; 4680262.992755; 1141.378138
4041.445879; 4690536.529443; 1153.158827
4050.446872; 4700916.104031; 1150.599359
4059.447865; 4711272.640862; 1151.948724
4068.448858; 4721641.323316; 1151.020369
4077.449851; 4732001.649655; 1147.167104
4086.450844; 4742327.292782; 1155.484388
4095.451837; 4752727.799723; 1140.197281
4104.452830; 4762990.707525; 1147.403436
4113.453823; 4773318.477877; 1154.752498
4122.454816; 4783712.397088; 1150.417722
4131.455809; 4794067.299005; 1155.108507
4140.456802; 4804464.422646; 1151.441527
4149.457795; 4814828.539828; 1148.126868
4158.458788; 4825162.821786; 1151.598949
4167.459782; 4835528.355922; 1158.430464
4176.460775; 4845955.380476; 1152.407636
4185.461768; 4856328.193596; 1149.031262
4194.462761; 4866670.615997; 1146.265540
4203.463754; 4876988.144155; 1158.587823
4212.464747; 4887416.585097; 1152.698480
4221.465740; 4897792.016106; 1158.099243
4230.466733; 4908216.059346; 1153.477724
4239.467726; 4918598.504320; 1155.039771
4248.468719; 4928995.009268; 1149.804562
4257.469712; 4939344.392136; 1149.985619
4266.470705; 4949695.404700; 1160.899836
4275.471698; 4960144.656055; 1159.867196
4284.472691; 4970584.612625; 1155.562495
4293.473684; 4980985.822605; 1159.178762
4302.474677; 4991419.582585; 1158.121854
4311.475670; 5001843.829342; 1159.829773
4320.476663; 5012283.449064; 1157.275369
4329.477656; 5022700.076613; 1161.549176
4338.478649; 5033155.172669; 1164.720657
4347.479643; 5043638.815203; 1156.955059
4356.480636; 5054052.559650; 1154.915373
4365.481629; 5064447.944894; 1152.179492
4374.482622; 5074818.704491; 1159.800198
4383.483615; 5085258.058009; 1161.585645
4392.484608; 5095713.482326; 1160.526588
4401.485601; 5106159.374074; 1156.185191
4410.486594; 5116566.188938; 1154.836132
4419.487587; 5126960.860935; 1159.372929
